#   WAVELENGTH        FLUX
#------------- -----------
     3500.000     0.56341
     3500.100     0.56343
     3500.200     0.56323
     3500.300     0.56303
     3500.400     0.56284
     3500.500     0.56264
     3500.600     0.56244
     3500.700     0.56224
     3500.800     0.56204
     3500.900     0.56187
     3501.000     0.56213
     3501.100     0.56239
     3501.200     0.56266
     3501.300     0.56292
     3501.400     0.56318
     3501.500     0.56344
     3501.600     0.56370
     3501.700     0.56397
     3501.800     0.56490
     3501.900     0.56583
     3502.000     0.56676
     3502.100     0.56770
     3502.200     0.56863
     3502.300     0.56956
     3502.400     0.57049
     3502.500     0.57143
     3502.600     0.57194
     3502.700     0.57243
     3502.800     0.57292
     3502.900     0.57340
     3503.000     0.57389
     3503.100     0.57438
     3503.200     0.57486
     3503.300     0.57535
     3503.400     0.57566
     3503.500     0.57594
     3503.600     0.57622
     3503.700     0.57650
     3503.800     0.57678
     3503.900     0.57706
     3504.000     0.57734
     3504.100     0.57762
     3504.200     0.57704
     3504.300     0.57626
     3504.400     0.57547
     3504.500     0.57468
     3504.600     0.57389
     3504.700     0.57311
     3504.800     0.57232
     3504.900     0.57153
     3505.000     0.57111
     3505.100     0.57083
     3505.200     0.57055
     3505.300     0.57027
     3505.400     0.56999
     3505.500     0.56971
     3505.600     0.56942
     3505.700     0.56914
     3505.800     0.56898
     3505.900     0.56889
     3506.000     0.56879
     3506.100     0.56870
     3506.200     0.56860
     3506.300     0.56851
     3506.400     0.56841
     3506.500     0.56832
     3506.600     0.56868
     3506.700     0.56936
     3506.800     0.57003
     3506.900     0.57071
     3507.000     0.57139
     3507.100     0.57206
     3507.200     0.57274
     3507.300     0.57341
     3507.400     0.57408
     3507.500     0.57474
     3507.600     0.57540
     3507.700     0.57606
     3507.800     0.57672
     3507.900     0.57738
     3508.000     0.57804
     3508.100     0.57870
     3508.200     0.57890
     3508.300     0.57853
     3508.400     0.57815
     3508.500     0.57777
     3508.600     0.57740
     3508.700     0.57702
     3508.800     0.57665
     3508.900     0.57627
     3509.000     0.57599
     3509.100     0.57589
     3509.200     0.57579
     3509.300     0.57569
     3509.400     0.57559
     3509.500     0.57548
     3509.600     0.57538
     3509.700     0.57528
     3509.800     0.57528
     3509.900     0.57552
     3510.000     0.57577
     3510.100     0.57601
     3510.200     0.57626
     3510.300     0.57650
     3510.400     0.57675
     3510.500     0.57699
     3510.600     0.57728
     3510.700     0.57776
     3510.800     0.57823
     3510.900     0.57871
     3511.000     0.57919
     3511.100     0.57966
     3511.200     0.58014
     3511.300     0.58061
     3511.400     0.58106
     3511.500     0.58125
     3511.600     0.58144
     3511.700     0.58163
     3511.800     0.58182
     3511.900     0.58201
     3512.000     0.58220
     3512.100     0.58239
     3512.200     0.58258
     3512.300     0.58239
     3512.400     0.58220
     3512.500     0.58201
     3512.600     0.58182
     3512.700     0.58163
     3512.800     0.58145
     3512.900     0.58126
     3513.000     0.58107
     3513.100     0.58082
     3513.200     0.58056
     3513.300     0.58031
     3513.400     0.58005
     3513.500     0.57980
     3513.600     0.57954
     3513.700     0.57929
     3513.800     0.57903
     3513.900     0.57877
     3514.000     0.57850
     3514.100     0.57824
     3514.200     0.57797
     3514.300     0.57771
     3514.400     0.57744
     3514.500     0.57718
     3514.600     0.57691
     3514.700     0.57699
     3514.800     0.57718
     3514.900     0.57738
     3515.000     0.57757
     3515.100     0.57776
     3515.200     0.57795
     3515.300     0.57814
     3515.400     0.57834
     3515.500     0.57830
     3515.600     0.57814
     3515.700     0.57798
     3515.800     0.57782
     3515.900     0.57766
     3516.000     0.57750
     3516.100     0.57735
     3516.200     0.57719
     3516.300     0.57639
     3516.400     0.57510
     3516.500     0.57381
     3516.600     0.57252
     3516.700     0.57123
     3516.800     0.56994
     3516.900     0.56865
     3517.000     0.56736
     3517.100     0.56693
     3517.200     0.56747
     3517.300     0.56801
     3517.400     0.56854
     3517.500     0.56908
     3517.600     0.56962
     3517.700     0.57016
     3517.800     0.57070
     3517.900     0.57153
     3518.000     0.57287
     3518.100     0.57421
     3518.200     0.57555
     3518.300     0.57689
     3518.400     0.57822
     3518.500     0.57956
     3518.600     0.58090
     3518.700     0.58195
     3518.800     0.58220
     3518.900     0.58245
     3519.000     0.58269
     3519.100     0.58294
     3519.200     0.58319
     3519.300     0.58344
     3519.400     0.58369
     3519.500     0.58385
     3519.600     0.58357
     3519.700     0.58329
     3519.800     0.58301
     3519.900     0.58272
     3520.000     0.58244
     3520.100     0.58216
     3520.200     0.58188
     3520.300     0.58157
     3520.400     0.58077
     3520.500     0.57998
     3520.600     0.57918
     3520.700     0.57839
     3520.800     0.57759
     3520.900     0.57680
     3521.000     0.57601
     3521.100     0.57521
     3521.200     0.57528
     3521.300     0.57538
     3521.400     0.57549
     3521.500     0.57560
     3521.600     0.57571
     3521.700     0.57582
     3521.800     0.57592
     3521.900     0.57603
     3522.000     0.57691
     3522.100     0.57794
     3522.200     0.57896
     3522.300     0.57999
     3522.400     0.58101
     3522.500     0.58204
     3522.600     0.58306
     3522.700     0.58409
     3522.800     0.58488
     3522.900     0.58559
     3523.000     0.58630
     3523.100     0.58701
     3523.200     0.58772
     3523.300     0.58843
     3523.400     0.58914
     3523.500     0.58985
     3523.600     0.59017
     3523.700     0.59027
     3523.800     0.59036
     3523.900     0.59045
     3524.000     0.59054
     3524.100     0.59063
     3524.200     0.59072
     3524.300     0.59082
     3524.400     0.59094
     3524.500     0.59108
     3524.600     0.59123
     3524.700     0.59138
     3524.800     0.59152
     3524.900     0.59167
     3525.000     0.59182
     3525.100     0.59196
     3525.200     0.59203
     3525.300     0.59198
     3525.400     0.59193
     3525.500     0.59187
     3525.600     0.59182
     3525.700     0.59177
     3525.800     0.59171
     3525.900     0.59166
     3526.000     0.59145
     3526.100     0.59080
     3526.200     0.59016
     3526.300     0.58952
     3526.400     0.58888
     3526.500     0.58824
     3526.600     0.58760
     3526.700     0.58696
     3526.800     0.58644
     3526.900     0.58662
     3527.000     0.58680
     3527.100     0.58698
     3527.200     0.58716
     3527.300     0.58733
     3527.400     0.58751
     3527.500     0.58769
     3527.600     0.58785
     3527.700     0.58762
     3527.800     0.58738
     3527.900     0.58714
     3528.000     0.58691
     3528.100     0.58667
     3528.200     0.58643
     3528.300     0.58619
     3528.400     0.58596
     3528.500     0.58521
     3528.600     0.58441
     3528.700     0.58362
     3528.800     0.58282
     3528.900     0.58203
     3529.000     0.58123
     3529.100     0.58043
     3529.200     0.57964
     3529.300     0.57861
     3529.400     0.57753
     3529.500     0.57644
     3529.600     0.57535
     3529.700     0.57427
     3529.800     0.57318
     3529.900     0.57210
     3530.000     0.57101
     3530.100     0.57000
     3530.200     0.56904
     3530.300     0.56807
     3530.400     0.56711
     3530.500     0.56614
     3530.600     0.56517
     3530.700     0.56421
     3530.800     0.56324
     3530.900     0.56292
     3531.000     0.56318
     3531.100     0.56344
     3531.200     0.56370
     3531.300     0.56396
     3531.400     0.56422
     3531.500     0.56448
     3531.600     0.56473
     3531.700     0.56497
     3531.800     0.56516
     3531.900     0.56535
     3532.000     0.56555
     3532.100     0.56574
     3532.200     0.56593
     3532.300     0.56612
     3532.400     0.56632
     3532.500     0.56642
     3532.600     0.56627
     3532.700     0.56612
     3532.800     0.56597
     3532.900     0.56582
     3533.000     0.56568
     3533.100     0.56553
     3533.200     0.56538
     3533.300     0.56508
     3533.400     0.56378
     3533.500     0.56247
     3533.600     0.56116
     3533.700     0.55986
     3533.800     0.55855
     3533.900     0.55724
     3534.000     0.55594
     3534.100     0.55463
     3534.200     0.55423
     3534.300     0.55384
     3534.400     0.55345
     3534.500     0.55306
     3534.600     0.55267
     3534.700     0.55228
     3534.800     0.55189
     3534.900     0.55150
     3535.000     0.55084
     3535.100     0.55012
     3535.200     0.54941
     3535.300     0.54869
     3535.400     0.54798
     3535.500     0.54726
     3535.600     0.54655
     3535.700     0.54583
     3535.800     0.54517
     3535.900     0.54452
     3536.000     0.54388
     3536.100     0.54323
     3536.200     0.54259
     3536.300     0.54194
     3536.400     0.54130
     3536.500     0.54065
     3536.600     0.54036
     3536.700     0.54034
     3536.800     0.54032
     3536.900     0.54029
     3537.000     0.54027
     3537.100     0.54025
     3537.200     0.54022
     3537.300     0.54020
     3537.400     0.54013
     3537.500     0.53998
     3537.600     0.53983
     3537.700     0.53969
     3537.800     0.53954
     3537.900     0.53940
     3538.000     0.53925
     3538.100     0.53911
     3538.200     0.53884
     3538.300     0.53827
     3538.400     0.53771
     3538.500     0.53714
     3538.600     0.53657
     3538.700     0.53600
     3538.800     0.53544
     3538.900     0.53487
     3539.000     0.53433
     3539.100     0.53395
     3539.200     0.53357
     3539.300     0.53320
     3539.400     0.53282
     3539.500     0.53244
     3539.600     0.53206
     3539.700     0.53169
     3539.800     0.53131
     3539.900     0.53009
     3540.000     0.52885
     3540.100     0.52761
     3540.200     0.52638
     3540.300     0.52514
     3540.400     0.52391
     3540.500     0.52267
     3540.600     0.52144
     3540.700     0.52067
     3540.800     0.51999
     3540.900     0.51932
     3541.000     0.51865
     3541.100     0.51798
     3541.200     0.51730
     3541.300     0.51663
     3541.400     0.51596
     3541.500     0.51548
     3541.600     0.51509
     3541.700     0.51470
     3541.800     0.51431
     3541.900     0.51393
     3542.000     0.51354
     3542.100     0.51315
     3542.200     0.51276
     3542.300     0.51265
     3542.400     0.51278
     3542.500     0.51291
     3542.600     0.51305
     3542.700     0.51318
     3542.800     0.51332
     3542.900     0.51345
     3543.000     0.51358
     3543.100     0.51373
     3543.200     0.51391
     3543.300     0.51409
     3543.400     0.51427
     3543.500     0.51444
     3543.600     0.51462
     3543.700     0.51480
     3543.800     0.51497
     3543.900     0.51521
     3544.000     0.51565
     3544.100     0.51609
     3544.200     0.51654
     3544.300     0.51698
     3544.400     0.51742
     3544.500     0.51787
     3544.600     0.51831
     3544.700     0.51879
     3544.800     0.52005
     3544.900     0.52130
     3545.000     0.52256
     3545.100     0.52381
     3545.200     0.52507
     3545.300     0.52632
     3545.400     0.52758
     3545.500     0.52883
     3545.600     0.52910
     3545.700     0.52923
     3545.800     0.52936
     3545.900     0.52950
     3546.000     0.52963
     3546.100     0.52977
     3546.200     0.52990
     3546.300     0.53003
     3546.400     0.52966
     3546.500     0.52909
     3546.600     0.52852
     3546.700     0.52795
     3546.800     0.52739
     3546.900     0.52682
     3547.000     0.52625
     3547.100     0.52568
     3547.200     0.52568
     3547.300     0.52615
     3547.400     0.52662
     3547.500     0.52708
     3547.600     0.52755
     3547.700     0.52802
     3547.800     0.52849
     3547.900     0.52896
     3548.000     0.52923
     3548.100     0.52920
     3548.200     0.52917
     3548.300     0.52913
     3548.400     0.52910
     3548.500     0.52907
     3548.600     0.52903
     3548.700     0.52900
     3548.800     0.52886
     3548.900     0.52832
     3549.000     0.52778
     3549.100     0.52724
     3549.200     0.52669
     3549.300     0.52615
     3549.400     0.52561
     3549.500     0.52507
     3549.600     0.52455
     3549.700     0.52460
     3549.800     0.52465
     3549.900     0.52470
     3550.000     0.52475
     3550.100     0.52480
     3550.200     0.52485
     3550.300     0.52490
     3550.400     0.52495
     3550.500     0.52492
     3550.600     0.52487
     3550.700     0.52483
     3550.800     0.52479
     3550.900     0.52475
     3551.000     0.52470
     3551.100     0.52466
     3551.200     0.52462
     3551.300     0.52348
     3551.400     0.52186
     3551.500     0.52023
     3551.600     0.51860
     3551.700     0.51697
     3551.800     0.51534
     3551.900     0.51371
     3552.000     0.51208
     3552.100     0.51106
     3552.200     0.51062
     3552.300     0.51018
     3552.400     0.50974
     3552.500     0.50930
     3552.600     0.50886
     3552.700     0.50842
     3552.800     0.50798
     3552.900     0.50785
     3553.000     0.50834
     3553.100     0.50884
     3553.200     0.50933
     3553.300     0.50983
     3553.400     0.51032
     3553.500     0.51082
     3553.600     0.51131
     3553.700     0.51165
     3553.800     0.51111
     3553.900     0.51057
     3554.000     0.51003
     3554.100     0.50949
     3554.200     0.50895
     3554.300     0.50842
     3554.400     0.50788
     3554.500     0.50734
     3554.600     0.50690
     3554.700     0.50648
     3554.800     0.50605
     3554.900     0.50562
     3555.000     0.50519
     3555.100     0.50476
     3555.200     0.50433
     3555.300     0.50391
     3555.400     0.50404
     3555.500     0.50432
     3555.600     0.50461
     3555.700     0.50490
     3555.800     0.50518
     3555.900     0.50547
     3556.000     0.50576
     3556.100     0.50605
     3556.200     0.50619
     3556.300     0.50623
     3556.400     0.50627
     3556.500     0.50631
     3556.600     0.50636
     3556.700     0.50640
     3556.800     0.50644
     3556.900     0.50648
     3557.000     0.50652
     3557.100     0.50656
     3557.200     0.50659
     3557.300     0.50663
     3557.400     0.50666
     3557.500     0.50670
     3557.600     0.50673
     3557.700     0.50677
     3557.800     0.50682
     3557.900     0.50695
     3558.000     0.50708
     3558.100     0.50721
     3558.200     0.50734
     3558.300     0.50747
     3558.400     0.50760
     3558.500     0.50774
     3558.600     0.50786
     3558.700     0.50746
     3558.800     0.50707
     3558.900     0.50668
     3559.000     0.50629
     3559.100     0.50590
     3559.200     0.50551
     3559.300     0.50512
     3559.400     0.50473
     3559.500     0.50402
     3559.600     0.50324
     3559.700     0.50247
     3559.800     0.50169
     3559.900     0.50091
     3560.000     0.50013
     3560.100     0.49936
     3560.200     0.49858
     3560.300     0.49861
     3560.400     0.49911
     3560.500     0.49961
     3560.600     0.50012
     3560.700     0.50062
     3560.800     0.50112
     3560.900     0.50162
     3561.000     0.50213
     3561.100     0.50249
     3561.200     0.50267
     3561.300     0.50285
     3561.400     0.50303
     3561.500     0.50321
     3561.600     0.50339
     3561.700     0.50357
     3561.800     0.50375
     3561.900     0.50384
     3562.000     0.50365
     3562.100     0.50346
     3562.200     0.50326
     3562.300     0.50307
     3562.400     0.50288
     3562.500     0.50268
     3562.600     0.50249
     3562.700     0.50231
     3562.800     0.50280
     3562.900     0.50329
     3563.000     0.50378
     3563.100     0.50427
     3563.200     0.50477
     3563.300     0.50526
     3563.400     0.50575
     3563.500     0.50624
     3563.600     0.50616
     3563.700     0.50595
     3563.800     0.50575
     3563.900     0.50555
     3564.000     0.50535
     3564.100     0.50514
     3564.200     0.50494
     3564.300     0.50474
     3564.400     0.50492
     3564.500     0.50535
     3564.600     0.50578
     3564.700     0.50620
     3564.800     0.50663
     3564.900     0.50706
     3565.000     0.50748
     3565.100     0.50791
     3565.200     0.50820
     3565.300     0.50827
     3565.400     0.50835
     3565.500     0.50843
     3565.600     0.50851
     3565.700     0.50859
     3565.800     0.50867
     3565.900     0.50875
     3566.000     0.50880
     3566.100     0.50874
     3566.200     0.50868
     3566.300     0.50862
     3566.400     0.50856
     3566.500     0.50850
     3566.600     0.50844
     3566.700     0.50838
     3566.800     0.50832
     3566.900     0.50780
     3567.000     0.50728
     3567.100     0.50676
     3567.200     0.50624
     3567.300     0.50571
     3567.400     0.50519
     3567.500     0.50467
     3567.600     0.50414
     3567.700     0.50333
     3567.800     0.50242
     3567.900     0.50151
     3568.000     0.50061
     3568.100     0.49970
     3568.200     0.49880
     3568.300     0.49789
     3568.400     0.49699
     3568.500     0.49636
     3568.600     0.49595
     3568.700     0.49554
     3568.800     0.49513
     3568.900     0.49472
     3569.000     0.49431
     3569.100     0.49390
     3569.200     0.49349
     3569.300     0.49351
     3569.400     0.49437
     3569.500     0.49523
     3569.600     0.49610
     3569.700     0.49696
     3569.800     0.49782
     3569.900     0.49868
     3570.000     0.49954
     3570.100     0.50023
     3570.200     0.49963
     3570.300     0.49904
     3570.400     0.49844
     3570.500     0.49784
     3570.600     0.49725
     3570.700     0.49665
     3570.800     0.49605
     3570.900     0.49546
     3571.000     0.49481
     3571.100     0.49415
     3571.200     0.49350
     3571.300     0.49284
     3571.400     0.49219
     3571.500     0.49153
     3571.600     0.49088
     3571.700     0.49022
     3571.800     0.49008
     3571.900     0.49017
     3572.000     0.49027
     3572.100     0.49037
     3572.200     0.49047
     3572.300     0.49057
     3572.400     0.49067
     3572.500     0.49077
     3572.600     0.49065
     3572.700     0.49025
     3572.800     0.48985
     3572.900     0.48945
     3573.000     0.48905
     3573.100     0.48865
     3573.200     0.48825
     3573.300     0.48785
     3573.400     0.48762
     3573.500     0.48799
     3573.600     0.48835
     3573.700     0.48872
     3573.800     0.48909
     3573.900     0.48945
     3574.000     0.48982
     3574.100     0.49019
     3574.200     0.49055
     3574.300     0.49025
     3574.400     0.48994
     3574.500     0.48964
     3574.600     0.48933
     3574.700     0.48902
     3574.800     0.48871
     3574.900     0.48841
     3575.000     0.48810
     3575.100     0.48705
     3575.200     0.48576
     3575.300     0.48447
     3575.400     0.48319
     3575.500     0.48190
     3575.600     0.48061
     3575.700     0.47933
     3575.800     0.47804
     3575.900     0.47707
     3576.000     0.47637
     3576.100     0.47567
     3576.200     0.47497
     3576.300     0.47427
     3576.400     0.47357
     3576.500     0.47287
     3576.600     0.47218
